# Pulseq sequence file
# Created by PyPulseq

[VERSION]
major 1
minor 4
revision 0

[DEFINITIONS]
AdcRasterTime 1e-07 
BlockDurationRaster 1e-05 
EPI 1 
FOV 0.3 0.3 0.005 
GradientRasterTime 1e-05 
Name YARRA 
RadiofrequencyRasterTime 1e-06 
TotalDuration 5.11744 

# Format of blocks:
# NUM DUR RF  GX  GY  GZ  ADC  EXT
[BLOCKS]
  1 275   1   0   0   1  0  0
  2  52   0   4   3   2  0  0
  3 866   0   5   0   0  1  0
  4  52   0   0   3   6  0  0
  5 216   0   7   0   0  0  0
  6 2537   0   0   0   0  0  0
  7 275   1   0   0   1  0  0
  8  52   0   4   8   2  0  0
  9 866   0   5   0   0  1  0
 10  52   0   0   8   6  0  0
 11 216   0   7   0   0  0  0
 12 2537   0   0   0   0  0  0
 13 275   1   0   0   1  0  0
 14  52   0   4   9   2  0  0
 15 866   0   5   0   0  1  0
 16  52   0   0   9   6  0  0
 17 216   0   7   0   0  0  0
 18 2537   0   0   0   0  0  0
 19 275   1   0   0   1  0  0
 20  52   0   4  10   2  0  0
 21 866   0   5   0   0  1  0
 22  52   0   0  10   6  0  0
 23 216   0   7   0   0  0  0
 24 2537   0   0   0   0  0  0
 25 275   1   0   0   1  0  0
 26  52   0   4  11   2  0  0
 27 866   0   5   0   0  1  0
 28  52   0   0  11   6  0  0
 29 216   0   7   0   0  0  0
 30 2537   0   0   0   0  0  0
 31 275   1   0   0   1  0  0
 32  52   0   4  12   2  0  0
 33 866   0   5   0   0  1  0
 34  52   0   0  12   6  0  0
 35 216   0   7   0   0  0  0
 36 2537   0   0   0   0  0  0
 37 275   1   0   0   1  0  0
 38  52   0   4  13   2  0  0
 39 866   0   5   0   0  1  0
 40  52   0   0  13   6  0  0
 41 216   0   7   0   0  0  0
 42 2537   0   0   0   0  0  0
 43 275   1   0   0   1  0  0
 44  52   0   4  14   2  0  0
 45 866   0   5   0   0  1  0
 46  52   0   0  14   6  0  0
 47 216   0   7   0   0  0  0
 48 2537   0   0   0   0  0  0
 49 275   1   0   0   1  0  0
 50  52   0   4  15   2  0  0
 51 866   0   5   0   0  1  0
 52  52   0   0  15   6  0  0
 53 216   0   7   0   0  0  0
 54 2537   0   0   0   0  0  0
 55 275   1   0   0   1  0  0
 56  52   0   4  16   2  0  0
 57 866   0   5   0   0  1  0
 58  52   0   0  16   6  0  0
 59 216   0   7   0   0  0  0
 60 2537   0   0   0   0  0  0
 61 275   1   0   0   1  0  0
 62  52   0   4  17   2  0  0
 63 866   0   5   0   0  1  0
 64  52   0   0  17   6  0  0
 65 216   0   7   0   0  0  0
 66 2537   0   0   0   0  0  0
 67 275   1   0   0   1  0  0
 68  52   0   4  18   2  0  0
 69 866   0   5   0   0  1  0
 70  52   0   0  18   6  0  0
 71 216   0   7   0   0  0  0
 72 2537   0   0   0   0  0  0
 73 275   1   0   0   1  0  0
 74  52   0   4  19   2  0  0
 75 866   0   5   0   0  1  0
 76  52   0   0  19   6  0  0
 77 216   0   7   0   0  0  0
 78 2537   0   0   0   0  0  0
 79 275   1   0   0   1  0  0
 80  52   0   4  20   2  0  0
 81 866   0   5   0   0  1  0
 82  52   0   0  20   6  0  0
 83 216   0   7   0   0  0  0
 84 2537   0   0   0   0  0  0
 85 275   1   0   0   1  0  0
 86  52   0   4  21   2  0  0
 87 866   0   5   0   0  1  0
 88  52   0   0  21   6  0  0
 89 216   0   7   0   0  0  0
 90 2537   0   0   0   0  0  0
 91 275   1   0   0   1  0  0
 92  52   0   4  22   2  0  0
 93 866   0   5   0   0  1  0
 94  52   0   0  22   6  0  0
 95 216   0   7   0   0  0  0
 96 2537   0   0   0   0  0  0
 97 275   1   0   0   1  0  0
 98  52   0   4  23   2  0  0
 99 866   0   5   0   0  1  0
100  52   0   0  23   6  0  0
101 216   0   7   0   0  0  0
102 2537   0   0   0   0  0  0
103 275   1   0   0   1  0  0
104  52   0   4  24   2  0  0
105 866   0   5   0   0  1  0
106  52   0   0  24   6  0  0
107 216   0   7   0   0  0  0
108 2537   0   0   0   0  0  0
109 275   1   0   0   1  0  0
110  52   0   4  25   2  0  0
111 866   0   5   0   0  1  0
112  52   0   0  25   6  0  0
113 216   0   7   0   0  0  0
114 2537   0   0   0   0  0  0
115 275   1   0   0   1  0  0
116  52   0   4  26   2  0  0
117 866   0   5   0   0  1  0
118  52   0   0  26   6  0  0
119 216   0   7   0   0  0  0
120 2537   0   0   0   0  0  0
121 275   1   0   0   1  0  0
122  52   0   4  27   2  0  0
123 866   0   5   0   0  1  0
124  52   0   0  27   6  0  0
125 216   0   7   0   0  0  0
126 2537   0   0   0   0  0  0
127 275   1   0   0   1  0  0
128  52   0   4  28   2  0  0
129 866   0   5   0   0  1  0
130  52   0   0  28   6  0  0
131 216   0   7   0   0  0  0
132 2537   0   0   0   0  0  0
133 275   1   0   0   1  0  0
134  52   0   4  29   2  0  0
135 866   0   5   0   0  1  0
136  52   0   0  29   6  0  0
137 216   0   7   0   0  0  0
138 2537   0   0   0   0  0  0
139 275   1   0   0   1  0  0
140  52   0   4  30   2  0  0
141 866   0   5   0   0  1  0
142  52   0   0  30   6  0  0
143 216   0   7   0   0  0  0
144 2537   0   0   0   0  0  0
145 275   1   0   0   1  0  0
146  52   0   4  31   2  0  0
147 866   0   5   0   0  1  0
148  52   0   0  31   6  0  0
149 216   0   7   0   0  0  0
150 2537   0   0   0   0  0  0
151 275   1   0   0   1  0  0
152  52   0   4  32   2  0  0
153 866   0   5   0   0  1  0
154  52   0   0  32   6  0  0
155 216   0   7   0   0  0  0
156 2537   0   0   0   0  0  0
157 275   1   0   0   1  0  0
158  52   0   4  33   2  0  0
159 866   0   5   0   0  1  0
160  52   0   0  33   6  0  0
161 216   0   7   0   0  0  0
162 2537   0   0   0   0  0  0
163 275   1   0   0   1  0  0
164  52   0   4  34   2  0  0
165 866   0   5   0   0  1  0
166  52   0   0  34   6  0  0
167 216   0   7   0   0  0  0
168 2537   0   0   0   0  0  0
169 275   1   0   0   1  0  0
170  52   0   4  35   2  0  0
171 866   0   5   0   0  1  0
172  52   0   0  35   6  0  0
173 216   0   7   0   0  0  0
174 2537   0   0   0   0  0  0
175 275   1   0   0   1  0  0
176  52   0   4  36   2  0  0
177 866   0   5   0   0  1  0
178  52   0   0  36   6  0  0
179 216   0   7   0   0  0  0
180 2537   0   0   0   0  0  0
181 275   1   0   0   1  0  0
182  52   0   4  37   2  0  0
183 866   0   5   0   0  1  0
184  52   0   0  37   6  0  0
185 216   0   7   0   0  0  0
186 2537   0   0   0   0  0  0
187 275   1   0   0   1  0  0
188  52   0   4  38   2  0  0
189 866   0   5   0   0  1  0
190  52   0   0  38   6  0  0
191 216   0   7   0   0  0  0
192 2537   0   0   0   0  0  0
193 275   1   0   0   1  0  0
194  52   0   4  39   2  0  0
195 866   0   5   0   0  1  0
196  52   0   0  39   6  0  0
197 216   0   7   0   0  0  0
198 2537   0   0   0   0  0  0
199 275   1   0   0   1  0  0
200  52   0   4  40   2  0  0
201 866   0   5   0   0  1  0
202  52   0   0  40   6  0  0
203 216   0   7   0   0  0  0
204 2537   0   0   0   0  0  0
205 275   1   0   0   1  0  0
206  52   0   4  41   2  0  0
207 866   0   5   0   0  1  0
208  52   0   0  41   6  0  0
209 216   0   7   0   0  0  0
210 2537   0   0   0   0  0  0
211 275   1   0   0   1  0  0
212  52   0   4  42   2  0  0
213 866   0   5   0   0  1  0
214  52   0   0  42   6  0  0
215 216   0   7   0   0  0  0
216 2537   0   0   0   0  0  0
217 275   1   0   0   1  0  0
218  52   0   4  43   2  0  0
219 866   0   5   0   0  1  0
220  52   0   0  43   6  0  0
221 216   0   7   0   0  0  0
222 2537   0   0   0   0  0  0
223 275   1   0   0   1  0  0
224  52   0   4  44   2  0  0
225 866   0   5   0   0  1  0
226  52   0   0  44   6  0  0
227 216   0   7   0   0  0  0
228 2537   0   0   0   0  0  0
229 275   1   0   0   1  0  0
230  52   0   4  45   2  0  0
231 866   0   5   0   0  1  0
232  52   0   0  45   6  0  0
233 216   0   7   0   0  0  0
234 2537   0   0   0   0  0  0
235 275   1   0   0   1  0  0
236  52   0   4  46   2  0  0
237 866   0   5   0   0  1  0
238  52   0   0  46   6  0  0
239 216   0   7   0   0  0  0
240 2537   0   0   0   0  0  0
241 275   1   0   0   1  0  0
242  52   0   4  47   2  0  0
243 866   0   5   0   0  1  0
244  52   0   0  47   6  0  0
245 216   0   7   0   0  0  0
246 2537   0   0   0   0  0  0
247 275   1   0   0   1  0  0
248  52   0   4  48   2  0  0
249 866   0   5   0   0  1  0
250  52   0   0  48   6  0  0
251 216   0   7   0   0  0  0
252 2537   0   0   0   0  0  0
253 275   1   0   0   1  0  0
254  52   0   4  49   2  0  0
255 866   0   5   0   0  1  0
256  52   0   0  49   6  0  0
257 216   0   7   0   0  0  0
258 2537   0   0   0   0  0  0
259 275   1   0   0   1  0  0
260  52   0   4  50   2  0  0
261 866   0   5   0   0  1  0
262  52   0   0  50   6  0  0
263 216   0   7   0   0  0  0
264 2537   0   0   0   0  0  0
265 275   1   0   0   1  0  0
266  52   0   4  51   2  0  0
267 866   0   5   0   0  1  0
268  52   0   0  51   6  0  0
269 216   0   7   0   0  0  0
270 2537   0   0   0   0  0  0
271 275   1   0   0   1  0  0
272  52   0   4  52   2  0  0
273 866   0   5   0   0  1  0
274  52   0   0  52   6  0  0
275 216   0   7   0   0  0  0
276 2537   0   0   0   0  0  0
277 275   1   0   0   1  0  0
278  52   0   4  53   2  0  0
279 866   0   5   0   0  1  0
280  52   0   0  53   6  0  0
281 216   0   7   0   0  0  0
282 2537   0   0   0   0  0  0
283 275   1   0   0   1  0  0
284  52   0   4  54   2  0  0
285 866   0   5   0   0  1  0
286  52   0   0  54   6  0  0
287 216   0   7   0   0  0  0
288 2537   0   0   0   0  0  0
289 275   1   0   0   1  0  0
290  52   0   4  55   2  0  0
291 866   0   5   0   0  1  0
292  52   0   0  55   6  0  0
293 216   0   7   0   0  0  0
294 2537   0   0   0   0  0  0
295 275   1   0   0   1  0  0
296  52   0   4  56   2  0  0
297 866   0   5   0   0  1  0
298  52   0   0  56   6  0  0
299 216   0   7   0   0  0  0
300 2537   0   0   0   0  0  0
301 275   1   0   0   1  0  0
302  52   0   4  57   2  0  0
303 866   0   5   0   0  1  0
304  52   0   0  57   6  0  0
305 216   0   7   0   0  0  0
306 2537   0   0   0   0  0  0
307 275   1   0   0   1  0  0
308  52   0   4  58   2  0  0
309 866   0   5   0   0  1  0
[RF]
1      57.0484 2 3 4 100 0 0

# Format of arbitrary gradients:
#   time_shape_id of 0 means default timing (stepping with grad_raster starting at 1/2 of grad_raster)
# id amplitude amp_shape_id time_shape_id delay
# ..      Hz/m       ..         ..          us
[GRADIENTS]
1       210756 1 0 0
2      -934565 5 0 0
3      -976280 6 0 0
4      -934991 7 0 0
5       111126 8 0 4770
6       934565 5 0 0
7       930307 9 0 860
8      -961144 10 0 0
9      -946008 11 0 0
10      -930872 12 0 0
11      -915735 13 0 0
12      -900599 14 0 0
13      -885463 15 0 0
14      -870327 16 0 0
15      -855191 17 0 0
16      -840055 18 0 0
17      -824919 19 0 0
18      -809783 7 0 0
19      -794646 20 0 0
20      -779510 21 0 0
21      -764374 13 0 0
22      -749238 22 0 0
23      -734102 23 0 0
24      -718966 24 0 0
25      -703830 25 0 0
26      -688694 26 0 0
27      -673557 27 0 0
28      -658421 28 0 0
29      -643285 29 0 0
30      -628149 30 0 0
31      -613013 31 0 0
32      -597877 32 0 0
33      -582741 33 0 0
34      -567605 13 0 0
35      -552469 17 0 0
36      -537332 13 0 0
37      -522196 13 0 0
38      -507060 13 0 0
39      -491924 34 0 0
40      -476788 35 0 0
41      -461652 36 0 0
42      -446516 37 0 0
43      -431380 38 0 0
44      -416243 39 0 0
45      -401107 40 0 0
46      -385971 41 0 0
47      -370835 42 0 0
48      -355699 43 0 0
49      -340563 44 0 0
50      -325427 45 0 0
51      -310291 35 0 0
52      -295154 46 0 0
53      -280018 13 0 0
54      -264882 13 0 0
55      -249746 47 0 0
56      -234610 48 0 0
57      -219474 49 0 0
58      -204338 50 0 0
59      -189202 51 0 0
60      -174065 52 0 0
61      -158929 53 0 0
62      -143793 54 0 0
63      -128657 13 0 0
64      -113521 13 0 0
65     -98384.8 13 0 0
66     -83248.7 55 0 0
67     -68112.6 13 0 0
68     -52976.4 13 0 0
69     -37840.3 7 0 0
70     -22704.2 33 0 0
71     -7568.06 56 0 0
72      7568.06 56 0 0
73      22704.2 33 0 0
74      37840.3 7 0 0
75      52976.4 13 0 0
76      68112.6 13 0 0
77      83248.7 55 0 0
78      98384.8 13 0 0
79       113521 13 0 0
80       128657 13 0 0
81       143793 54 0 0
82       158929 53 0 0
83       174065 52 0 0
84       189202 51 0 0
85       204338 50 0 0
86       219474 49 0 0
87       234610 48 0 0
88       249746 47 0 0
89       264882 13 0 0
90       280018 13 0 0
91       295154 46 0 0
92       310291 35 0 0
93       325427 45 0 0
94       340563 44 0 0
95       355699 43 0 0
96       370835 42 0 0
97       385971 41 0 0
98       401107 40 0 0
99       416243 39 0 0
100       431380 38 0 0
101       446516 37 0 0
102       461652 36 0 0
103       476788 35 0 0
104       491924 34 0 0
105       507060 13 0 0
106       522196 13 0 0
107       537332 13 0 0
108       552469 17 0 0
109       567605 13 0 0
110       582741 33 0 0
111       597877 32 0 0
112       613013 31 0 0
113       628149 30 0 0
114       643285 29 0 0
115       658421 28 0 0
116       673557 27 0 0
117       688694 26 0 0
118       703830 25 0 0
119       718966 24 0 0
120       734102 23 0 0
121       749238 22 0 0
122       764374 13 0 0
123       779510 21 0 0
124       794646 20 0 0
125       809783 7 0 0
126       824919 19 0 0
127       840055 18 0 0
128       855191 17 0 0
129       870327 16 0 0
130       885463 15 0 0
131       900599 14 0 0
132       915735 13 0 0
133       930872 12 0 0
134       946008 11 0 0

# Format of ADC events:
# id num dwell delay freq phase
# ..  ..    ns    us   Hz   rad
[ADC]
1 256 15000 4800 0 0

# Sequence Shapes
[SHAPES]

shape_id 1
num_samples 275
0
0.1
0.1
8
0
0
252
-0.1
-0.1
8

shape_id 2
num_samples 128
3.11854168e-18
0.00127709713
0.00263619803
0.00412096129
0.00577427533
0.00763644759
0.00974335716
0.0121246124
0.0148017555
0.0177865559
0.0210794356
0.0246680655
0.0285261709
0.0326125821
0.0368705593
0.0412274199
0.0455944881
0.049867383
0.0539266529
0.0576387606
0.060857414
0.0634252303
0.0651757189
0.0659355557
0.0655271198
0.0637712562
0.0604902216
0.0555107692
0.0486673194
0.0398051656
0.028783659
0.0154793152
0.00021121304
0.018368353
0.0390470728
0.0622746373
0.0880487054
0.116335811
0.147070264
0.180153504
0.215453928
0.252807202
0.292017081
0.332856714
0.375070447
0.418376095
0.462467653
0.507018435
0.551684572
0.596108847
0.639924798
0.682761038
0.72424573
0.764011151
0.801698272
0.836961294
0.869472065
0.898924318
0.925037648
0.947561196
0.96627695
0.981002636
0.991594142
0.997947446
1
0.997731574
0.991164526
0.9803635
0.965434562
0.946523782
0.923815282
0.897528787
0.867916719
0.835260863
0.799868678
0.762069301
0.722209299
0.680648243
0.637754172
0.593899008
0.549453996
0.504785237
0.460249377
0.416189514
0.372931381
0.330779861
0.290015875
0.250893686
0.213638654
0.178445456
0.145476804
0.114862652
0.08669991
0.0610526363
0.0379527113
0.0174009566
0.000631326021
0.0162004336
0.0293880021
0.0402984533
0.0490562018
0.0558026742
0.0606931964
0.0638938077
0.0655780545
0.0659238229
0.0651102599
0.0633148353
0.06071059
0.0574636108
0.0537307703
0.0496577599
0.0453774413
0.0410085329
0.0366546428
0.0324036509
0.028327439
0.0244819565
0.0209076103
0.017629953
0.0146606458
0.0119986645
0.00963171233
0.00753780233
0.00568696944
0.00404306915
0.00256562126
0.00121165629

shape_id 3
num_samples 128
0
0
126

shape_id 4
num_samples 128
10
20
20
125

shape_id 5
num_samples 52
0
0.0455
0.0454
0.0455
0.0454
0.0455
0.0454
0.0455
0.0454
0.0455
0.0454
0.0455
0.0455
0
0.0454
0.0455
0.0454
0.0455
0.0454
0.0455
0.0454
0.0455
0.0454
0.0455
0
0
5
-0.0455
-0.0454
-0.0455
-0.0454
-0.0455
-0.0454
-0.0455
-0.0454
-0.0455
-0.0454
-0.0455
-0.0455
0
-0.0454
-0.0455
-0.0454
-0.0455
-0.0454
-0.0455
-0.0454
-0.0455
-0.0454
-0.0455

shape_id 6
num_samples 45
0
0.0455
0.0909
0.1364
0.1818
0.2273
0.2727
0.3182
0.3636
0.4091
0.4545
0.5
0.5455
0.5909
0.6364
0.6818
0.7273
0.7727
0.8182
0.8636
0.9091
0.9545
1
0.9545
0.9091
0.8636
0.8182
0.7727
0.7273
0.6818
0.6364
0.5909
0.5455
0.5
0.4545
0.4091
0.3636
0.3182
0.2727
0.2273
0.1818
0.1364
0.0909
0.0455
0

shape_id 7
num_samples 45
0
0.0455
0.0909
0.1364
0.1818
0.2273
0.2727
0.3182
0.3636
0.4091
0.4545
0.5
0.5455
0.5909
0.6364
0.6818
0.7273
0.7727
0.8182
0.8636
0.9091
0.9545
1
0.9545
0.9091
0.8636
0.8182
0.7727
0.7273
0.6818
0.6364
0.5909
0.5455
0.5
0.4545
0.4091
0.3636
0.3182
0.2727
0.2273
0.1818
0.1364
0.0909
0.0455
0

shape_id 8
num_samples 389
0
0.3333
0.3334
0.3333
0
0
380
-0.3333
-0.3334
-0.3333

shape_id 9
num_samples 130
0
0.0455
0.0454
0.0455
0.0454
0.0455
0.0454
0.0455
0.0454
0.0455
0.0454
0.0455
0.0455
0
0.0454
0.0455
0.0454
0.0455
0.0454
0.0455
0.0454
0.0455
0.0454
0.0455
0
0
83
-0.0455
-0.0454
-0.0455
-0.0454
-0.0455
-0.0454
-0.0455
-0.0454
-0.0455
-0.0454
-0.0455
-0.0455
0
-0.0454
-0.0455
-0.0454
-0.0455
-0.0454
-0.0455
-0.0454
-0.0455
-0.0454
-0.0455

shape_id 10
num_samples 45
0
0.0455
0.0909
0.1364
0.1818
0.2273
0.2727
0.3182
0.3636
0.4091
0.4545
0.5
0.5455
0.5909
0.6364
0.6818
0.7273
0.7727
0.8182
0.8636
0.9091
0.9545
1
0.9545
0.9091
0.8636
0.8182
0.7727
0.7273
0.6818
0.6364
0.5909
0.5455
0.5
0.4545
0.4091
0.3636
0.3182
0.2727
0.2273
0.1818
0.1364
0.0909
0.0455
0

shape_id 11
num_samples 45
0
0.0455
0.0909
0.1364
0.1818
0.2273
0.2727
0.3182
0.3636
0.4091
0.4545
0.5
0.5455
0.5909
0.6364
0.6818
0.7273
0.7727
0.8182
0.8636
0.9091
0.9545
1
0.9545
0.9091
0.8636
0.8182
0.7727
0.7273
0.6818
0.6364
0.5909
0.5455
0.5
0.4545
0.4091
0.3636
0.3182
0.2727
0.2273
0.1818
0.1364
0.0909
0.0455
0

shape_id 12
num_samples 45
0
0.0455
0.0909
0.1364
0.1818
0.2273
0.2727
0.3182
0.3636
0.4091
0.4545
0.5
0.5455
0.5909
0.6364
0.6818
0.7273
0.7727
0.8182
0.8636
0.9091
0.9545
1
0.9545
0.9091
0.8636
0.8182
0.7727
0.7273
0.6818
0.6364
0.5909
0.5455
0.5
0.4545
0.4091
0.3636
0.3182
0.2727
0.2273
0.1818
0.1364
0.0909
0.0455
0

shape_id 13
num_samples 45
0
0.0455
0.0909
0.1364
0.1818
0.2273
0.2727
0.3182
0.3636
0.4091
0.4545
0.5
0.5455
0.5909
0.6364
0.6818
0.7273
0.7727
0.8182
0.8636
0.9091
0.9545
1
0.9545
0.9091
0.8636
0.8182
0.7727
0.7273
0.6818
0.6364
0.5909
0.5455
0.5
0.4545
0.4091
0.3636
0.3182
0.2727
0.2273
0.1818
0.1364
0.0909
0.0455
0

shape_id 14
num_samples 45
0
0.0455
0.0909
0.1364
0.1818
0.2273
0.2727
0.3182
0.3636
0.4091
0.4545
0.5
0.5455
0.5909
0.6364
0.6818
0.7273
0.7727
0.8182
0.8636
0.9091
0.9545
1
0.9545
0.9091
0.8636
0.8182
0.7727
0.7273
0.6818
0.6364
0.5909
0.5455
0.5
0.4545
0.4091
0.3636
0.3182
0.2727
0.2273
0.1818
0.1364
0.0909
0.0455
0

shape_id 15
num_samples 45
0
0.0455
0.0909
0.1364
0.1818
0.2273
0.2727
0.3182
0.3636
0.4091
0.4545
0.5
0.5455
0.5909
0.6364
0.6818
0.7273
0.7727
0.8182
0.8636
0.9091
0.9545
1
0.9545
0.9091
0.8636
0.8182
0.7727
0.7273
0.6818
0.6364
0.5909
0.5455
0.5
0.4545
0.4091
0.3636
0.3182
0.2727
0.2273
0.1818
0.1364
0.0909
0.0455
0

shape_id 16
num_samples 45
0
0.0455
0.0909
0.1364
0.1818
0.2273
0.2727
0.3182
0.3636
0.4091
0.4545
0.5
0.5455
0.5909
0.6364
0.6818
0.7273
0.7727
0.8182
0.8636
0.9091
0.9545
1
0.9545
0.9091
0.8636
0.8182
0.7727
0.7273
0.6818
0.6364
0.5909
0.5455
0.5
0.4545
0.4091
0.3636
0.3182
0.2727
0.2273
0.1818
0.1364
0.0909
0.0455
0

shape_id 17
num_samples 45
0
0.0455
0.0909
0.1364
0.1818
0.2273
0.2727
0.3182
0.3636
0.4091
0.4545
0.5
0.5455
0.5909
0.6364
0.6818
0.7273
0.7727
0.8182
0.8636
0.9091
0.9545
1
0.9545
0.9091
0.8636
0.8182
0.7727
0.7273
0.6818
0.6364
0.5909
0.5455
0.5
0.4545
0.4091
0.3636
0.3182
0.2727
0.2273
0.1818
0.1364
0.0909
0.0455
0

shape_id 18
num_samples 45
0
0.0455
0.0909
0.1364
0.1818
0.2273
0.2727
0.3182
0.3636
0.4091
0.4545
0.5
0.5455
0.5909
0.6364
0.6818
0.7273
0.7727
0.8182
0.8636
0.9091
0.9545
1
0.9545
0.9091
0.8636
0.8182
0.7727
0.7273
0.6818
0.6364
0.5909
0.5455
0.5
0.4545
0.4091
0.3636
0.3182
0.2727
0.2273
0.1818
0.1364
0.0909
0.0455
0

shape_id 19
num_samples 45
0
0.0455
0.0909
0.1364
0.1818
0.2273
0.2727
0.3182
0.3636
0.4091
0.4545
0.5
0.5455
0.5909
0.6364
0.6818
0.7273
0.7727
0.8182
0.8636
0.9091
0.9545
1
0.9545
0.9091
0.8636
0.8182
0.7727
0.7273
0.6818
0.6364
0.5909
0.5455
0.5
0.4545
0.4091
0.3636
0.3182
0.2727
0.2273
0.1818
0.1364
0.0909
0.0455
0

shape_id 20
num_samples 45
0
0.0455
0.0909
0.1364
0.1818
0.2273
0.2727
0.3182
0.3636
0.4091
0.4545
0.5
0.5455
0.5909
0.6364
0.6818
0.7273
0.7727
0.8182
0.8636
0.9091
0.9545
1
0.9545
0.9091
0.8636
0.8182
0.7727
0.7273
0.6818
0.6364
0.5909
0.5455
0.5
0.4545
0.4091
0.3636
0.3182
0.2727
0.2273
0.1818
0.1364
0.0909
0.0455
0

shape_id 21
num_samples 45
0
0.0455
0.0909
0.1364
0.1818
0.2273
0.2727
0.3182
0.3636
0.4091
0.4545
0.5
0.5455
0.5909
0.6364
0.6818
0.7273
0.7727
0.8182
0.8636
0.9091
0.9545
1
0.9545
0.9091
0.8636
0.8182
0.7727
0.7273
0.6818
0.6364
0.5909
0.5455
0.5
0.4545
0.4091
0.3636
0.3182
0.2727
0.2273
0.1818
0.1364
0.0909
0.0455
0

shape_id 22
num_samples 45
0
0.0455
0.0909
0.1364
0.1818
0.2273
0.2727
0.3182
0.3636
0.4091
0.4545
0.5
0.5455
0.5909
0.6364
0.6818
0.7273
0.7727
0.8182
0.8636
0.9091
0.9545
1
0.9545
0.9091
0.8636
0.8182
0.7727
0.7273
0.6818
0.6364
0.5909
0.5455
0.5
0.4545
0.4091
0.3636
0.3182
0.2727
0.2273
0.1818
0.1364
0.0909
0.0455
0

shape_id 23
num_samples 45
0
0.0455
0.0909
0.1364
0.1818
0.2273
0.2727
0.3182
0.3636
0.4091
0.4545
0.5
0.5455
0.5909
0.6364
0.6818
0.7273
0.7727
0.8182
0.8636
0.9091
0.9545
1
0.9545
0.9091
0.8636
0.8182
0.7727
0.7273
0.6818
0.6364
0.5909
0.5455
0.5
0.4545
0.4091
0.3636
0.3182
0.2727
0.2273
0.1818
0.1364
0.0909
0.0455
0

shape_id 24
num_samples 45
0
0.0455
0.0909
0.1364
0.1818
0.2273
0.2727
0.3182
0.3636
0.4091
0.4545
0.5
0.5455
0.5909
0.6364
0.6818
0.7273
0.7727
0.8182
0.8636
0.9091
0.9545
1
0.9545
0.9091
0.8636
0.8182
0.7727
0.7273
0.6818
0.6364
0.5909
0.5455
0.5
0.4545
0.4091
0.3636
0.3182
0.2727
0.2273
0.1818
0.1364
0.0909
0.0455
0

shape_id 25
num_samples 45
0
0.0455
0.0909
0.1364
0.1818
0.2273
0.2727
0.3182
0.3636
0.4091
0.4545
0.5
0.5455
0.5909
0.6364
0.6818
0.7273
0.7727
0.8182
0.8636
0.9091
0.9545
1
0.9545
0.9091
0.8636
0.8182
0.7727
0.7273
0.6818
0.6364
0.5909
0.5455
0.5
0.4545
0.4091
0.3636
0.3182
0.2727
0.2273
0.1818
0.1364
0.0909
0.0455
0

shape_id 26
num_samples 45
0
0.0455
0.0909
0.1364
0.1818
0.2273
0.2727
0.3182
0.3636
0.4091
0.4545
0.5
0.5455
0.5909
0.6364
0.6818
0.7273
0.7727
0.8182
0.8636
0.9091
0.9545
1
0.9545
0.9091
0.8636
0.8182
0.7727
0.7273
0.6818
0.6364
0.5909
0.5455
0.5
0.4545
0.4091
0.3636
0.3182
0.2727
0.2273
0.1818
0.1364
0.0909
0.0455
0

shape_id 27
num_samples 45
0
0.0455
0.0909
0.1364
0.1818
0.2273
0.2727
0.3182
0.3636
0.4091
0.4545
0.5
0.5455
0.5909
0.6364
0.6818
0.7273
0.7727
0.8182
0.8636
0.9091
0.9545
1
0.9545
0.9091
0.8636
0.8182
0.7727
0.7273
0.6818
0.6364
0.5909
0.5455
0.5
0.4545
0.4091
0.3636
0.3182
0.2727
0.2273
0.1818
0.1364
0.0909
0.0455
0

shape_id 28
num_samples 45
0
0.0455
0.0909
0.1364
0.1818
0.2273
0.2727
0.3182
0.3636
0.4091
0.4545
0.5
0.5455
0.5909
0.6364
0.6818
0.7273
0.7727
0.8182
0.8636
0.9091
0.9545
1
0.9545
0.9091
0.8636
0.8182
0.7727
0.7273
0.6818
0.6364
0.5909
0.5455
0.5
0.4545
0.4091
0.3636
0.3182
0.2727
0.2273
0.1818
0.1364
0.0909
0.0455
0

shape_id 29
num_samples 45
0
0.0455
0.0909
0.1364
0.1818
0.2273
0.2727
0.3182
0.3636
0.4091
0.4545
0.5
0.5455
0.5909
0.6364
0.6818
0.7273
0.7727
0.8182
0.8636
0.9091
0.9545
1
0.9545
0.9091
0.8636
0.8182
0.7727
0.7273
0.6818
0.6364
0.5909
0.5455
0.5
0.4545
0.4091
0.3636
0.3182
0.2727
0.2273
0.1818
0.1364
0.0909
0.0455
0

shape_id 30
num_samples 45
0
0.0455
0.0909
0.1364
0.1818
0.2273
0.2727
0.3182
0.3636
0.4091
0.4545
0.5
0.5455
0.5909
0.6364
0.6818
0.7273
0.7727
0.8182
0.8636
0.9091
0.9545
1
0.9545
0.9091
0.8636
0.8182
0.7727
0.7273
0.6818
0.6364
0.5909
0.5455
0.5
0.4545
0.4091
0.3636
0.3182
0.2727
0.2273
0.1818
0.1364
0.0909
0.0455
0

shape_id 31
num_samples 45
0
0.0455
0.0909
0.1364
0.1818
0.2273
0.2727
0.3182
0.3636
0.4091
0.4545
0.5
0.5455
0.5909
0.6364
0.6818
0.7273
0.7727
0.8182
0.8636
0.9091
0.9545
1
0.9545
0.9091
0.8636
0.8182
0.7727
0.7273
0.6818
0.6364
0.5909
0.5455
0.5
0.4545
0.4091
0.3636
0.3182
0.2727
0.2273
0.1818
0.1364
0.0909
0.0455
0

shape_id 32
num_samples 45
0
0.0455
0.0909
0.1364
0.1818
0.2273
0.2727
0.3182
0.3636
0.4091
0.4545
0.5
0.5455
0.5909
0.6364
0.6818
0.7273
0.7727
0.8182
0.8636
0.9091
0.9545
1
0.9545
0.9091
0.8636
0.8182
0.7727
0.7273
0.6818
0.6364
0.5909
0.5455
0.5
0.4545
0.4091
0.3636
0.3182
0.2727
0.2273
0.1818
0.1364
0.0909
0.0455
0

shape_id 33
num_samples 45
0
0.0455
0.0909
0.1364
0.1818
0.2273
0.2727
0.3182
0.3636
0.4091
0.4545
0.5
0.5455
0.5909
0.6364
0.6818
0.7273
0.7727
0.8182
0.8636
0.9091
0.9545
1
0.9545
0.9091
0.8636
0.8182
0.7727
0.7273
0.6818
0.6364
0.5909
0.5455
0.5
0.4545
0.4091
0.3636
0.3182
0.2727
0.2273
0.1818
0.1364
0.0909
0.0455
0

shape_id 34
num_samples 45
0
0.0455
0.0909
0.1364
0.1818
0.2273
0.2727
0.3182
0.3636
0.4091
0.4545
0.5
0.5455
0.5909
0.6364
0.6818
0.7273
0.7727
0.8182
0.8636
0.9091
0.9545
1
0.9545
0.9091
0.8636
0.8182
0.7727
0.7273
0.6818
0.6364
0.5909
0.5455
0.5
0.4545
0.4091
0.3636
0.3182
0.2727
0.2273
0.1818
0.1364
0.0909
0.0455
0

shape_id 35
num_samples 45
0
0.0455
0.0909
0.1364
0.1818
0.2273
0.2727
0.3182
0.3636
0.4091
0.4545
0.5
0.5455
0.5909
0.6364
0.6818
0.7273
0.7727
0.8182
0.8636
0.9091
0.9545
1
0.9545
0.9091
0.8636
0.8182
0.7727
0.7273
0.6818
0.6364
0.5909
0.5455
0.5
0.4545
0.4091
0.3636
0.3182
0.2727
0.2273
0.1818
0.1364
0.0909
0.0455
0

shape_id 36
num_samples 45
0
0.0455
0.0909
0.1364
0.1818
0.2273
0.2727
0.3182
0.3636
0.4091
0.4545
0.5
0.5455
0.5909
0.6364
0.6818
0.7273
0.7727
0.8182
0.8636
0.9091
0.9545
1
0.9545
0.9091
0.8636
0.8182
0.7727
0.7273
0.6818
0.6364
0.5909
0.5455
0.5
0.4545
0.4091
0.3636
0.3182
0.2727
0.2273
0.1818
0.1364
0.0909
0.0455
0

shape_id 37
num_samples 45
0
0.0455
0.0909
0.1364
0.1818
0.2273
0.2727
0.3182
0.3636
0.4091
0.4545
0.5
0.5455
0.5909
0.6364
0.6818
0.7273
0.7727
0.8182
0.8636
0.9091
0.9545
1
0.9545
0.9091
0.8636
0.8182
0.7727
0.7273
0.6818
0.6364
0.5909
0.5455
0.5
0.4545
0.4091
0.3636
0.3182
0.2727
0.2273
0.1818
0.1364
0.0909
0.0455
0

shape_id 38
num_samples 45
0
0.0455
0.0909
0.1364
0.1818
0.2273
0.2727
0.3182
0.3636
0.4091
0.4545
0.5
0.5455
0.5909
0.6364
0.6818
0.7273
0.7727
0.8182
0.8636
0.9091
0.9545
1
0.9545
0.9091
0.8636
0.8182
0.7727
0.7273
0.6818
0.6364
0.5909
0.5455
0.5
0.4545
0.4091
0.3636
0.3182
0.2727
0.2273
0.1818
0.1364
0.0909
0.0455
0

shape_id 39
num_samples 45
0
0.0455
0.0909
0.1364
0.1818
0.2273
0.2727
0.3182
0.3636
0.4091
0.4545
0.5
0.5455
0.5909
0.6364
0.6818
0.7273
0.7727
0.8182
0.8636
0.9091
0.9545
1
0.9545
0.9091
0.8636
0.8182
0.7727
0.7273
0.6818
0.6364
0.5909
0.5455
0.5
0.4545
0.4091
0.3636
0.3182
0.2727
0.2273
0.1818
0.1364
0.0909
0.0455
0

shape_id 40
num_samples 45
0
0.0455
0.0909
0.1364
0.1818
0.2273
0.2727
0.3182
0.3636
0.4091
0.4545
0.5
0.5455
0.5909
0.6364
0.6818
0.7273
0.7727
0.8182
0.8636
0.9091
0.9545
1
0.9545
0.9091
0.8636
0.8182
0.7727
0.7273
0.6818
0.6364
0.5909
0.5455
0.5
0.4545
0.4091
0.3636
0.3182
0.2727
0.2273
0.1818
0.1364
0.0909
0.0455
0

shape_id 41
num_samples 45
0
0.0455
0.0909
0.1364
0.1818
0.2273
0.2727
0.3182
0.3636
0.4091
0.4545
0.5
0.5455
0.5909
0.6364
0.6818
0.7273
0.7727
0.8182
0.8636
0.9091
0.9545
1
0.9545
0.9091
0.8636
0.8182
0.7727
0.7273
0.6818
0.6364
0.5909
0.5455
0.5
0.4545
0.4091
0.3636
0.3182
0.2727
0.2273
0.1818
0.1364
0.0909
0.0455
0

shape_id 42
num_samples 45
0
0.0455
0.0909
0.1364
0.1818
0.2273
0.2727
0.3182
0.3636
0.4091
0.4545
0.5
0.5455
0.5909
0.6364
0.6818
0.7273
0.7727
0.8182
0.8636
0.9091
0.9545
1
0.9545
0.9091
0.8636
0.8182
0.7727
0.7273
0.6818
0.6364
0.5909
0.5455
0.5
0.4545
0.4091
0.3636
0.3182
0.2727
0.2273
0.1818
0.1364
0.0909
0.0455
0

shape_id 43
num_samples 45
0
0.0455
0.0909
0.1364
0.1818
0.2273
0.2727
0.3182
0.3636
0.4091
0.4545
0.5
0.5455
0.5909
0.6364
0.6818
0.7273
0.7727
0.8182
0.8636
0.9091
0.9545
1
0.9545
0.9091
0.8636
0.8182
0.7727
0.7273
0.6818
0.6364
0.5909
0.5455
0.5
0.4545
0.4091
0.3636
0.3182
0.2727
0.2273
0.1818
0.1364
0.0909
0.0455
0

shape_id 44
num_samples 45
0
0.0455
0.0909
0.1364
0.1818
0.2273
0.2727
0.3182
0.3636
0.4091
0.4545
0.5
0.5455
0.5909
